t(msec)  F1(Hz)  F2(Hz)  F3(Hz)
  1.00 856.661 1563.010 3190.450
 21.00 962.531 1471.523 2990.855
 41.00 917.495 1870.641 2683.592
 61.00 1037.213 1824.949 2926.497
 81.00 881.277 1957.758 2933.640
101.00 899.955 2133.597 3443.169
121.00 1267.714 2702.296 3448.666
141.00 1327.301 2456.719 3543.666
161.00 1268.565 2665.389 3631.795
181.00 421.152 1493.593 2338.422
201.00 367.449 1260.768 2640.437
221.00 352.383 1561.502 2562.783
241.00 325.975 1941.183 2654.856
261.00 289.451 2081.830 2780.039
281.00 276.446 2143.211 2856.544
301.00 275.800 2165.806 2888.906
321.00 281.501 2131.403 2810.339
341.00 278.173 2095.114 2578.614
361.00 318.948 1982.574 2966.199
381.00 317.779 1846.246 2963.437
401.00 601.114 2107.907 2773.211
421.00 654.401 1717.522 2742.396
441.00 563.393 1593.757 2624.838
461.00 642.632 1588.919 2683.500
481.00 651.699 1770.064 2917.958
501.00 439.165 1757.052 2516.488
521.00 488.049 1619.485 2247.187
541.00 373.269 1366.719 2105.780
561.00 342.988 1371.254 2128.969
581.00 348.817 1514.702 2666.656
601.00 1257.397 2485.370 3340.265
621.00 1060.603 2298.402 3070.676
641.00 867.239 1546.714 2516.178
661.00 696.207 1597.034 2560.660
681.00 405.911 1053.176 1456.546
701.00 456.595 1091.859 1401.835
721.00 486.307 1141.412 1376.896
741.00 496.819 1133.866 1384.441
761.00 500.848 1169.545 1373.186
781.00 495.137 1204.105 1368.831
801.00 505.596 1244.952 1356.203
821.00 494.701 1388.599 2962.752
841.00 517.782 1389.672 2958.766
861.00 261.587 1019.048 1733.916
881.00 261.142 1010.364 1907.648
901.00 273.791 978.114 2114.881
921.00 283.005 998.488 2221.065
941.00 276.064 1166.542 2373.024
961.00 279.183 751.950 2411.669
981.00 106.881 1463.954 2751.973
1001.00 248.489 1344.788 2584.781
1021.00 415.682 1035.632 2689.261
1041.00 1336.754 2458.283 3374.780
1061.00 823.685 1729.267 2675.641
1081.00 619.783 1047.816 2337.021
1101.00 741.516 1104.196 2380.506
1121.00 618.797 961.724 2447.268
1141.00 647.637 957.361 2441.507
1161.00 642.296 907.389 2471.051
1181.00 627.533 887.976 2397.911
1201.00 589.569 877.481 2369.769
1221.00 561.166 845.813 2303.752
1241.00 544.088 829.206 2333.199
1261.00 542.063 897.123 2461.215
1281.00 538.169 957.478 2492.004
1301.00 573.746 1031.577 2643.116
1321.00 196.005 1536.761 2693.642
1341.00 1205.200 2248.815 3783.649
1361.00 1242.287 2673.667 3783.649
1381.00 641.868 1450.962 2621.252
1401.00 591.730 1655.875 2954.745
1421.00 392.468 1631.629 2613.684
1441.00 341.430 1867.912 2685.498
1461.00 333.725 1900.347 2830.742
1481.00 338.003 1837.552 3265.798
1501.00 313.190 1793.692 3230.469
1521.00 320.327 1646.327 3263.760
1541.00 369.617 1677.905 3352.596
1561.00 377.255 1788.905 3352.096
1581.00 340.708 1800.505 3546.086
1601.00 272.838 1884.067 3476.888
1621.00 239.836 1832.405 3039.534
1641.00 445.050 1717.292 1985.439
1661.00 471.142 1761.863 3421.694
1681.00 553.307 1738.130 3391.941
1701.00 592.467 1655.549 3310.344
1721.00 576.065 1653.612 3364.154
1741.00 550.633 1573.831 3254.358
1761.00 470.138 1532.615 2966.688
1781.00 442.827 1576.569 2549.921
1801.00 533.197 1816.855 2723.960
1821.00 552.060 1958.900 2743.781
1841.00 511.765 2011.835 2354.949
1861.00 442.700 2077.989 3552.863
1881.00 358.036 2052.191 3654.624
1901.00 452.902 2087.718 3555.566
1921.00 413.446 687.016 2239.405
1941.00 480.697 853.641 2325.344
1961.00 541.458 1155.975 2392.001
1981.00 494.765 1566.880 2309.717
2001.00 452.312 1877.122 2434.253
2021.00 400.744 1886.338 2429.279
2041.00 398.312 1751.605 2442.497
2061.00 162.363 1762.781 2526.831
2081.00 535.584 1738.404 2715.859
2101.00 638.339 1886.480 2658.170
2121.00 1504.388 2617.382 3626.622
2141.00 776.962 1817.065 2756.674
2161.00 814.104 1983.215 3174.686
2181.00 369.787 1351.931 1824.211
2201.00 391.482 1186.039 1609.872
2221.00 256.844 991.655 1729.446
2241.00 256.305 1042.882 1827.687
2261.00 249.810 1041.002 2035.453
2281.00 435.502 1015.909 2239.435
2301.00 498.664 985.902 2364.592
2321.00 502.394 943.231 2430.036
2341.00 468.550 864.957 2348.303
2361.00 396.225 794.768 2294.311
2381.00 370.434 754.244 2202.980
2401.00 381.841 756.606 2245.431
2421.00 408.656 740.528 2310.438
2441.00 433.416 740.049 2259.913
2461.00 426.845 678.623 2323.787
2481.00 300.623 637.233 2195.436
2501.00 216.419 675.209 2279.274
2521.00 183.880 1079.556 2320.038
2541.00 944.650 1564.687 2864.232
2561.00 846.124 2080.765 2970.196
2581.00 887.668 2379.159 3665.337
